 STICS ION VELOCITY AT EACH VOLTAGE STEP
  DVS       H      He2      He1       C6       C5       C4       07       O6       O1      Ne8     Mg10      Mg8     Si12      Si9      Si8     Fe16     Fe14     Fe12     Fe11     Fe10      Fe9      Fe8                                                                         
    0   1089.1    773.0    546.6    772.9    705.5    631.0    723.3    669.6    273.4    688.5    701.4    627.4    714.8    619.0    583.6    585.3    547.5    506.9    485.3    462.7    439.0    413.9
    1   1154.0    819.0    579.1    818.9    747.5    668.6    766.4    709.5    289.7    729.5    743.2    664.7    757.3    655.8    618.3    620.1    580.1    537.1    514.2    490.3    465.1    438.5
    2   1222.7    867.7    613.6    867.6    792.0    708.4    812.0    751.7    306.9    772.9    787.4    704.3    802.4    694.9    655.1    657.0    614.6    569.0    544.8    519.4    492.8    464.6
    3   1295.4    919.4    650.1    919.2    839.1    750.6    860.3    796.5    325.2    818.9    834.3    746.2    850.1    736.2    694.1    696.2    651.2    602.9    577.2    550.4    522.1    492.3
    4   1372.5    974.1    688.8    973.9    889.1    795.2    911.5    843.9    344.5    867.7    883.9    790.6    900.7    780.1    735.5    737.6    690.0    638.8    611.6    583.1    553.2    521.6
    5   1454.2   1032.0    729.8   1031.9    942.0    842.6    965.8    894.1    365.0    919.3    936.5    837.7    954.4    826.5    779.2    781.5    731.0    676.8    648.0    617.8    586.1    552.6
    6   1540.8   1093.5    773.2   1093.3    998.1    892.7   1023.2    947.3    386.7    974.0    992.3    887.5   1011.2    875.7    825.6    828.0    774.5    717.1    686.5    654.6    621.0    585.5
    7   1632.5   1158.6    819.2   1158.4   1057.5    945.8   1084.1   1003.7    409.8   1032.0   1051.3    940.3   1071.4    927.8    874.8    877.3    820.6    759.8    727.4    693.6    658.0    620.3
    8   1729.7   1227.5    868.0   1227.4   1120.4   1002.1   1148.7   1063.5    434.2   1093.4   1113.9    996.3   1135.1    983.0    926.8    929.5    869.5    805.0    770.7    734.8    697.1    657.3
    9   1832.6   1300.6    919.7   1300.4   1187.1   1061.8   1217.0   1126.8    460.0   1158.5   1180.2   1055.6   1202.7   1041.6    982.0    984.8    921.2    852.9    816.6    778.6    738.6    696.4
   10   1941.7   1378.0    974.4   1377.8   1257.8   1125.0   1289.5   1193.8    487.4   1227.5   1250.5   1118.4   1274.3   1103.5   1040.4   1043.5    976.1    903.7    865.2    824.9    782.6    737.8
   11   2057.3   1460.0   1032.4   1459.8   1332.6   1192.0   1366.2   1264.9    516.4   1300.5   1324.9   1185.0   1350.1   1169.2   1102.4   1105.6   1034.2    957.4    916.7    874.0    829.2    781.8
   12   2179.7   1546.9   1093.8   1546.7   1412.0   1262.9   1447.6   1340.2    547.1   1377.9   1403.7   1255.5   1430.5   1238.8   1168.0   1171.4   1095.7   1014.4    971.2    926.0    878.5    828.3
   13   2309.5   1639.0   1158.9   1638.8   1496.0   1338.1   1533.7   1420.0    579.7   1459.9   1487.3   1330.3   1515.6   1312.6   1237.5   1241.1   1160.9   1074.8   1029.1    981.2    930.8    877.6
   14   2446.9   1736.6   1227.9   1736.3   1585.1   1417.7   1625.0   1504.5    614.2   1546.8   1575.8   1409.5   1605.8   1390.7   1311.2   1315.0   1230.0   1138.8   1090.3   1039.6    986.2    929.8
   15   2592.6   1839.9   1301.0   1839.7   1679.4   1502.1   1721.7   1594.0    650.8   1638.9   1669.6   1493.3   1701.4   1473.5   1389.2   1393.2   1303.2   1206.6   1155.2   1101.4   1044.9    985.2
   16   2746.9   1949.4   1378.5   1949.2   1779.4   1591.5   1824.2   1688.9    689.5   1736.5   1769.0   1582.2   1802.7   1561.2   1471.9   1476.2   1380.8   1278.4   1224.0   1167.0   1107.1   1043.8
   17   2910.4   2065.5   1460.5   2065.2   1885.3   1686.2   1932.8   1789.4    730.5   1839.8   1874.3   1676.4   1910.0   1654.1   1559.5   1564.0   1463.0   1354.5   1296.8   1236.5   1173.0   1105.9
   18   3083.6   2188.4   1547.4   2188.1   1997.5   1786.6   2047.8   1895.9    774.0   1949.3   1985.8   1776.2   2023.7   1752.5   1652.3   1657.1   1550.1   1435.1   1374.0   1310.1   1242.8   1171.8
   19   3267.2   2318.7   1639.5   2318.4   2116.4   1892.9   2169.7   2008.8    820.1   2065.4   2104.0   1881.9   2144.1   1856.9   1750.7   1755.7   1642.3   1520.5   1455.8   1388.0   1316.8   1241.5
   20   3461.6   2456.7   1737.1   2456.4   2242.3   2005.6   2298.9   2128.3    868.9   2188.3   2229.3   1993.9   2271.7   1967.4   1854.9   1860.2   1740.1   1611.0   1542.4   1470.7   1395.2   1315.4
   21   3667.7   2602.9   1840.5   2602.6   2375.8   2125.0   2435.7   2255.0    920.6   2318.5   2362.0   2112.6   2407.0   2084.5   1965.3   1971.0   1843.7   1706.9   1634.2   1558.2   1478.2   1393.7
   22   3886.0   2757.8   1950.1   2757.5   2517.2   2251.5   2580.7   2389.2    975.4   2456.5   2502.6   2238.4   2550.2   2208.6   2082.2   2088.3   1953.4   1808.5   1731.5   1650.9   1566.2   1476.6
   23   4117.3   2922.0   2066.1   2921.6   2667.0   2385.5   2734.3   2531.5   1033.5   2602.8   2651.5   2371.6   2702.0   2340.0   2206.2   2212.6   2069.7   1916.2   1834.6   1749.2   1659.4   1564.5
   24   4362.4   3095.9   2189.1   3095.5   2825.8   2527.5   2897.0   2682.1   1095.0   2757.7   2809.3   2512.7   2862.8   2479.3   2337.5   2344.3   2192.9   2030.2   1943.8   1853.3   1758.2   1657.7
   25   4622.0   3280.2   2319.4   3279.8   2994.0   2677.9   3069.5   2841.8   1160.2   2921.8   2976.6   2662.3   3033.2   2626.9   2476.6   2483.8   2323.4   2151.1   2059.5   1963.6   1862.9   1756.3
   26   4897.1   3475.4   2457.5   3475.0   3172.2   2837.3   3252.2   3010.9   1229.2   3095.7   3153.7   2820.8   3213.8   2783.2   2624.0   2631.7   2461.7   2279.1   2182.1   2080.5   1973.7   1860.9
   27   5188.6   3682.3   2603.8   3681.8   3361.0   3006.2   3445.7   3190.1   1302.4   3280.0   3341.4   2988.7   3405.1   2948.9   2780.2   2788.3   2608.2   2414.7   2311.9   2204.3   2091.2   1971.6
   28   5497.4   3901.4   2758.7   3900.9   3561.1   3185.1   3650.8   3380.0   1379.9   3475.2   3540.3   3166.6   3607.8   3124.4   2945.7   2954.3   2763.5   2558.5   2449.5   2335.6   2215.7   2089.0
   29   5824.6   4133.7   2922.9   4133.1   3773.0   3374.7   3868.1   3581.2   1462.0   3682.1   3751.1   3355.0   3822.5   3310.4   3121.0   3130.1   2927.9   2710.8   2595.3   2474.6   2347.6   2213.3
   30   6171.3   4379.7   3096.9   4379.1   3997.6   3575.6   4098.4   3794.4   1549.0   3901.2   3974.3   3554.7   4050.0   3507.4   3306.8   3316.4   3102.2   2872.1   2749.8   2621.9   2487.3   2345.1
   31   6538.7   4640.4   3281.2   4639.8   4235.5   3788.4   4342.3   4020.2   1641.2   4133.5   4210.9   3766.3   4291.1   3716.2   3503.6   3513.8   3286.9   3043.1   2913.5   2777.9   2635.4   2484.6
